num crossings	time (s)	maj axis (mm)	min axis (mm)	theta (rad )	slope (V/s)
6269	424874.299029	30.797709	-15.961930	-1.081958	9.069398
6271	424876.393374	30.594676	-17.008830	-1.120301	5.183741
6273	424878.471545	31.529493	-15.696637	-1.097604	11.181971
6275	424880.530997	28.135032	-20.464626	-1.012004	7.126332
6277	424882.645691	30.308047	-15.296835	-1.065590	14.448296
6279	424884.712785	32.098725	15.758994	-1.083671	16.996069
6281	424886.816358	32.469671	15.486584	-1.073333	6.164511
6283	424888.881753	32.487917	15.431031	-1.077087	17.324272
6285	424890.941170	31.371183	-14.931831	-1.040209	5.974139
6287	424893.068144	30.588933	-14.656631	-1.049996	11.128326
6289	424895.126839	33.238099	-15.195760	-1.067071	16.158854
6291	424897.212431	32.599954	-15.063601	-1.059145	3.080640
6293	424899.298757	34.340110	-17.018338	-0.981418	9.665352
6295	424901.375733	32.717748	-14.807105	-1.050536	16.366613
6297	424903.446370	32.266383	-14.657024	-1.051228	13.334802
6299	424905.524743	32.261115	-12.923638	-1.058559	5.393685
6301	424907.623557	33.453075	-14.553775	-1.044916	5.724220
6303	424909.709697	32.359071	-14.395359	-1.044564	13.962835
6305	424911.778105	32.415361	-14.120706	-1.003549	9.896958
6307	424913.875721	32.914298	-14.304754	-1.033654	13.022956
6309	424915.942091	32.743894	-14.155000	-1.044702	16.763663
6311	424918.011625	32.774141	-14.154149	-1.042463	6.778947
6313	424920.118206	32.869300	-13.919354	-1.025597	16.144185
6315	424922.186758	33.412528	-19.538520	-1.015893	16.009070
6317	424924.282019	33.475988	-14.003298	-1.036837	8.705292
6319	424926.351761	33.863580	-13.934770	-1.037859	15.873674
6321	424928.423342	33.992761	-13.817678	-1.032638	7.951581
6323	424930.531338	33.441622	-13.518740	-1.022880	11.421441
6325	424932.599172	32.973378	-13.800019	-1.024875	15.092643
6327	424934.681557	35.048427	-13.528211	-1.005864	7.762905
6329	424936.771075	31.256507	-17.533142	-0.978316	13.132385
6331	424938.838971	33.820254	-13.322878	-1.018816	15.245161
6333	424940.927165	34.032997	-13.183781	-1.015715	11.201512
6335	424943.007455	34.815954	-13.028649	-1.003093	15.992294
6337	424945.083994	34.224601	-13.054980	-1.016473	10.597320
6339	424947.159770	35.492835	13.074276	-1.016803	9.784695
6341	424949.257920	35.874499	12.754703	-1.014599	14.119623
6343	424951.327220	34.295091	-12.764415	-0.996981	14.728675
6345	424953.413155	35.286190	-12.633191	-0.986449	10.859317
6347	424955.511058	34.082736	-17.146743	-0.990881	13.501382
6349	424957.587504	34.491997	-12.453945	-1.003714	15.322103
6351	424959.671340	36.355147	12.597805	-1.017912	12.025163
6353	424961.746688	35.790869	12.603435	-1.005389	13.926537
6355	424963.823692	34.799921	-12.296055	-0.986258	11.408380
6357	424965.908052	34.862042	-12.380401	-0.990651	11.943794
6359	424967.995469	34.982924	-16.609090	-0.982717	15.106713
6361	424970.084056	36.167738	-12.372213	-0.986891	12.395804
6363	424972.160728	41.200944	-13.575412	-0.931418	13.518872
6365	424974.233334	34.954941	-11.988989	-0.982870	14.712800
6367	424976.315594	36.490620	-17.113704	-0.953990	13.236046
6369	424978.400433	35.697543	-11.810132	-0.983025	13.486299
6371	424980.480010	37.118476	-16.335467	-0.968766	16.047364
6373	424982.563240	35.396251	-11.615992	-0.979563	11.852217
6375	424984.651189	35.847763	-11.610902	-0.983378	14.483457
6377	424986.734171	36.224627	-11.560697	-0.978260	15.894833
6379	424988.810818	36.531797	-11.622414	-0.984579	16.069331
6381	424990.890248	34.271611	-15.237809	-0.954642	13.027069
6383	424992.974237	35.746886	-11.308091	-0.977099	16.278633
6385	424995.056230	36.497732	-11.439593	-0.981855	13.284725
6387	424997.141579	37.084152	-11.301833	-0.961922	15.288990
6389	424999.226425	36.744514	-11.268009	-0.971193	16.910740
6391	425001.313654	36.201409	-11.332715	-0.973193	15.056798
6393	425003.394504	37.097439	-11.023064	-0.965681	18.233400
6395	425005.477290	37.957879	-15.265196	-0.957303	15.036849
6397	425007.550049	38.085754	-11.112853	-0.965442	20.099608
6399	425009.632575	39.301298	-10.872239	-0.931068	13.722158
6401	425011.717392	37.148255	-10.834491	-0.970922	18.047747
6403	425013.799554	37.831012	-14.997432	-0.954629	16.475130
6405	425015.888097	39.057351	-10.764209	-0.966344	14.899703
6407	425017.968690	37.348989	-10.825478	-0.964332	17.405623
6409	425020.053665	37.434598	-10.552502	-0.958455	15.381725
6411	425022.132969	38.596289	-10.508801	-0.951155	16.526529
6413	425024.215936	40.367206	-13.544968	-0.958006	15.717534
6415	425026.293937	39.251694	-10.484934	-0.955270	19.008336
6417	425028.376396	38.483637	-10.479745	-0.972195	16.109392
6419	425030.458111	38.181891	-10.290275	-0.960594	19.226258
6421	425032.544731	44.917579	-10.526349	-0.926455	15.692098
6423	425034.624746	38.571025	-10.071805	-0.958767	19.605772
6425	425036.711667	40.305344	10.160424	-0.953815	17.448249
6427	425038.792871	40.204572	10.325433	-0.959247	17.148130
6429	425040.874292	38.295865	-9.867593	-0.953750	19.430711
6431	425042.953351	40.039830	10.321256	-0.953595	17.194669
6433	425045.031974	38.960273	-9.918813	-0.952061	17.884770
6435	425047.112049	39.494225	-9.829680	-0.947850	19.505696
6437	425049.194722	37.569510	-12.633695	-0.917818	15.709540
6439	425051.278780	39.187911	-9.644423	-0.948809	17.888524
6441	425053.364322	38.917211	-9.710558	-0.955718	20.384865
6443	425055.452710	39.887804	-9.666710	-0.940253	16.715418
6445	425057.532202	38.319896	-14.555330	-0.931650	19.326646
6447	425059.613420	39.287834	-9.336366	-0.945750	19.751391
6449	425061.692257	40.963936	-9.529190	-0.948091	18.217203
6451	425063.773574	39.508706	-9.487022	-0.949426	18.194083
6453	425065.856715	39.890035	-9.312918	-0.945985	18.888092
6455	425067.935811	38.655369	-9.353617	-0.942126	19.401671
6457	425070.016723	40.019879	-9.226311	-0.938528	20.283252
6459	425072.100421	38.993639	-13.781915	-0.918632	17.293330
6461	425074.182745	40.489887	-9.051101	-0.944590	21.439211
6463	425076.265783	40.934784	-9.056242	-0.942325	19.471695
6465	425078.347684	41.650811	-8.847018	-0.928297	20.768709
6467	425080.429823	39.235853	-13.861577	-0.926995	18.962622
6469	425082.515288	40.374484	-8.772670	-0.938968	19.145486
6471	425084.598756	43.121626	-8.966414	-0.943865	21.283967
6473	425086.683549	41.290330	-8.872920	-0.940932	18.588964
6475	425088.766071	41.468719	-8.682276	-0.934844	21.694236
6477	425090.851132	41.172752	-8.835463	-0.941966	18.694574
6479	425092.930187	41.504436	-8.581838	-0.933961	21.317827
6481	425095.008586	41.926933	-8.590680	-0.934538	20.838312
6483	425097.089900	42.369973	-12.501641	-0.924433	20.246847
6485	425099.169560	41.557667	-8.277149	-0.935365	21.522043
6487	425101.254495	41.660660	-8.411054	-0.925176	20.538068
6489	425103.335940	41.630124	-8.429820	-0.944725	22.635000
6491	425105.421165	43.562901	-8.364831	-0.934974	19.813323
6493	425107.505236	40.486968	-13.684826	-0.916652	22.373130
6495	425109.589300	43.857224	-8.195419	-0.929920	20.989281
6497	425111.672000	42.768359	-8.170447	-0.934184	24.225037
6499	425113.754293	43.449732	-8.005439	-0.926332	19.875359
6501	425115.835802	43.202536	-8.081697	-0.938508	22.118387
6503	425117.920271	43.135838	-13.396161	-0.916220	21.170635
6505	425119.999139	43.733989	-8.162139	-0.939414	24.195715
6507	425122.080756	42.476957	-13.303682	-0.913468	20.651084
6509	425124.161617	44.365228	-7.885359	-0.931929	21.522809
6511	425126.241742	43.626150	-7.608798	-0.918393	24.156578
6513	425128.322872	43.801254	-7.805899	-0.930298	23.306101
6515	425130.402762	39.795427	-12.424888	-0.933256	23.307971
6517	425132.488745	42.950202	-7.695403	-0.929068	23.471715
6519	425134.572374	43.396441	-7.754166	-0.936163	22.702368
6521	425136.656903	43.324092	-7.451818	-0.931324	24.384411
6523	425138.741885	43.660955	-7.480384	-0.932386	23.211175
6525	425140.825218	45.450734	7.682392	-0.932264	23.930929
6527	425142.907241	45.908562	-7.508380	-0.925104	27.556328
6529	425144.988057	42.653404	-13.087243	-0.899389	22.884106
6531	425147.069141	46.357196	7.701305	-0.933343	22.781970
6533	425149.152665	46.498534	7.530849	-0.929706	23.715902
6535	425151.233228	44.891236	-7.275478	-0.927605	25.892754
6537	425153.315634	45.190962	-7.282995	-0.928272	24.565641
6539	425155.397933	46.403046	-7.056599	-0.917489	24.002293
6541	425157.480726	45.810501	-6.890816	-0.915199	26.308421
6543	425159.563983	45.471446	-7.158915	-0.929027	23.903013
6545	425161.645500	45.371057	-6.966043	-0.925883	25.998233
6547	425163.730803	44.998788	-6.918471	-0.923824	23.548265
6549	425165.812642	46.673416	-6.925645	-0.922756	26.735477
6551	425167.895651	45.892428	-6.984301	-0.925200	24.649319
6553	425169.975924	46.280266	-11.493042	-0.904948	24.261627
6555	425172.056552	45.493632	-6.883104	-0.927650	24.656858
6557	425174.138085	46.153111	-6.883595	-0.929183	25.545600
6559	425176.217028	46.290269	-6.817186	-0.930779	26.373386
6561	425178.299251	45.939821	-6.730959	-0.929328	24.315836
6563	425180.382226	48.285621	6.883753	-0.937454	25.553945
6565	425182.464415	48.030359	-6.678502	-0.917147	25.841479
6567	425184.549947	47.454667	-6.563887	-0.917824	26.532721
